Temps (s),T1 (°C),T2 (°C),T3 (°C)
Temps (s), T1 (°C), T2 (°C), T3 (°C)
0,22.61,23.06,23.06
1,22.70,23.06,23.06
2,22.70,23.06,22.97
3,22.61,23.06,22.97
4,22.61,23.06,23.06
5,22.61,23.06,22.97
6,22.61,22.97,22.97
7,22.61,23.06,22.97
8,22.79,23.06,22.97
9,23.06,22.97,22.97
10,23.42,22.97,22.97
11,23.78,22.97,22.97
12,24.14,22.97,22.97
13,24.41,23.06,22.97
14,24.68,23.06,22.97
15,24.95,23.06,22.97
16,25.13,23.15,22.97
17,25.40,23.15,22.97
18,25.67,23.24,22.97
19,25.77,23.24,22.97
20,25.95,23.33,22.97
21,26.13,23.33,22.97
22,26.31,23.42,22.97
23,26.49,23.51,22.97
24,26.68,23.60,22.97
25,26.77,23.60,22.97
26,26.95,23.69,23.06
27,27.04,23.78,23.06
28,27.13,23.87,23.06
29,27.32,23.87,23.06
30,27.41,23.96,23.15
31,27.50,24.05,23.15
32,27.59,24.14,23.15
33,27.69,24.14,23.24
34,27.78,24.23,23.24
35,27.87,24.32,23.24
36,27.96,24.41,23.33
37,28.05,24.50,23.33
38,28.15,24.50,23.42
39,28.24,24.59,23.42
40,28.33,24.68,23.51
41,28.42,24.77,23.51
42,28.52,24.77,23.60
43,28.61,24.86,23.60
44,28.70,24.95,23.69
45,28.70,24.95,23.69
46,28.79,25.04,23.78
47,28.89,25.13,23.78
48,28.89,25.22,23.87
49,28.98,25.31,23.87
50,29.07,25.31,23.96
51,29.17,25.40,23.96
52,29.26,25.49,24.05
53,29.35,25.49,24.14
54,29.35,25.58,24.14
55,29.45,25.67,24.14
56,29.54,25.77,24.23
57,29.54,25.77,24.32
58,29.63,25.86,24.32
59,29.63,25.86,24.41
60,29.73,25.95,24.41
61,29.82,26.04,24.50
62,29.82,26.04,24.50
63,29.92,26.13,24.59
64,30.01,26.22,24.68
65,30.01,26.22,24.68
66,30.10,26.31,24.77
67,30.20,26.31,24.77
68,30.29,26.40,24.86
69,30.29,26.40,24.95
70,30.39,26.49,24.95
71,30.39,26.59,25.04
72,30.39,26.59,25.04
73,30.48,26.68,25.13
74,30.57,26.68,25.13
75,30.67,26.77,25.22
76,30.67,26.86,25.22
77,30.76,26.86,25.31
78,30.76,26.95,25.40
79,30.86,26.95,25.40
80,30.95,27.04,25.49
81,30.95,27.04,25.58
82,30.95,27.13,25.58
83,31.05,27.23,25.67
84,31.05,27.23,25.67
85,31.05,27.32,25.77
86,31.05,27.32,25.77
87,31.14,27.41,25.86
88,31.14,27.41,25.86
89,31.14,27.50,25.95
90,31.24,27.50,26.04
91,31.33,27.59,26.04
92,31.33,27.59,26.04
93,31.33,27.69,26.13
94,31.43,27.69,26.13
95,31.43,27.78,26.22
96,31.43,27.78,26.22
97,31.52,27.87,26.31
98,31.52,27.87,26.31
99,31.52,27.96,26.40
100,31.62,27.96,26.40
101,31.62,28.05,26.40
102,31.72,28.05,26.49
103,31.72,28.05,26.59
104,31.72,28.15,26.68
105,31.81,28.15,26.68
106,31.81,28.24,26.68
107,31.81,28.24,26.68
108,31.91,28.33,26.77
109,31.91,28.33,26.77
110,31.91,28.42,26.86
111,32.00,28.42,26.86
112,32.00,28.52,26.95
113,32.10,28.52,26.95
114,32.10,28.52,26.95
115,32.10,28.61,27.04
116,32.20,28.61,27.04
117,32.20,28.70,27.13
118,32.20,28.70,27.13
119,32.29,28.70,27.13
120,32.29,28.79,27.23
121,32.29,28.89,27.23
122,32.39,28.89,27.32
123,32.39,28.89,27.32
124,32.39,28.98,27.41
125,32.49,28.98,27.41
126,32.49,28.98,27.41
127,32.49,29.07,27.50
128,32.49,29.07,27.50
129,32.49,29.17,27.59
130,32.58,29.17,27.59
131,32.58,29.17,27.59
132,32.58,29.26,27.69
133,32.58,29.26,27.69
134,32.68,29.26,27.78
135,32.68,29.35,27.78
136,32.68,29.35,27.78
137,32.78,29.35,27.78
138,32.78,29.45,27.87
139,32.87,29.45,27.87
140,32.87,29.45,27.96
141,32.87,29.54,27.96
142,32.87,29.54,27.96
143,32.97,29.54,27.96
144,32.87,29.54,28.05
145,32.97,29.63,28.05
146,32.97,29.63,28.15
147,32.97,29.63,28.15
148,33.07,29.73,28.15
149,33.07,29.73,28.15
150,33.07,29.73,28.24
151,33.16,29.82,28.24
152,33.16,29.82,28.33
153,33.16,29.82,28.33
154,33.26,29.82,28.33
155,33.26,29.92,28.42
156,33.26,29.92,28.42
157,33.26,29.92,28.42
158,33.36,30.01,28.52
159,33.36,30.01,28.52
160,33.36,30.01,28.52
161,33.36,30.10,28.52
162,33.46,30.10,28.61
163,33.55,30.10,28.61
164,33.55,30.10,28.61
165,33.55,30.10,28.61
166,33.65,30.20,28.70
167,33.65,30.20,28.70
168,33.65,30.20,28.70
169,33.65,30.29,28.70
170,33.65,30.29,28.79
171,33.65,30.39,28.79
172,33.65,30.39,28.89
173,33.75,30.39,28.89
174,33.75,30.48,28.89
175,33.75,30.48,28.89
176,33.75,30.48,28.89
177,33.75,30.48,28.98
178,33.75,30.57,28.98
179,33.85,30.57,28.98
180,33.85,30.57,29.07
181,33.95,30.57,29.07
182,33.95,30.67,29.07
183,33.95,30.67,29.07
184,33.95,30.67,29.17
185,33.95,30.76,29.17
186,33.95,30.76,29.17
187,33.95,30.76,29.17
188,33.95,30.76,29.26
189,33.95,30.76,29.26
190,34.04,30.86,29.26
191,34.04,30.86,29.26
192,34.04,30.86,29.35
193,34.04,30.86,29.35
194,34.04,30.86,29.35
195,34.14,30.95,29.35
196,34.14,30.95,29.45
197,34.24,30.95,29.45
198,34.24,30.95,29.45
199,34.34,30.95,29.45
200,34.34,31.05,29.54
201,34.34,31.05,29.54
202,34.34,31.14,29.54
203,34.44,31.14,29.54
204,34.44,31.14,29.54
205,34.44,31.14,29.54
206,34.44,31.24,29.63
207,34.44,31.24,29.63
208,34.44,31.33,29.63
209,34.44,31.33,29.73
210,34.44,31.33,29.73
211,34.44,31.33,29.73
212,34.44,31.33,29.73
213,34.44,31.33,29.73
214,34.54,31.43,29.82
215,34.54,31.43,29.82
216,34.54,31.43,29.92
217,34.64,31.43,29.92
218,34.64,31.43,29.92
219,34.64,31.43,29.92
220,34.64,31.43,30.01
221,34.64,31.52,30.01
222,34.64,31.52,30.01
223,34.74,31.52,30.01
224,34.74,31.52,30.01
225,34.74,31.52,30.01
226,34.74,31.62,30.10
227,34.74,31.62,30.10
228,34.74,31.62,30.10
229,34.74,31.62,30.10
230,34.74,31.62,30.20
231,34.74,31.62,30.20
232,34.84,31.62,30.20
233,34.84,31.62,30.20
234,34.84,31.62,30.20
235,34.84,31.72,30.20
236,34.84,31.72,30.20
237,34.94,31.72,30.29
238,34.94,31.81,30.29
239,34.94,31.81,30.39
240,34.94,31.81,30.39
241,34.94,31.81,30.39
242,34.94,31.81,30.39
243,35.04,31.81,30.39
244,35.04,31.81,30.39
245,35.04,31.91,30.39
246,35.04,31.91,30.39
247,35.14,31.91,30.39
248,35.14,31.91,30.48
249,35.14,31.91,30.48
250,35.24,31.91,30.48
251,35.24,31.91,30.48
252,35.24,31.91,30.48
253,35.24,31.91,30.48
254,35.24,31.91,30.57
255,35.24,31.91,30.57
256,35.24,32.00,30.57
257,35.24,32.00,30.57
258,35.24,32.00,30.57
259,35.24,32.00,30.67
260,35.24,32.10,30.67
261,35.24,32.10,30.67
262,35.24,32.10,30.67
263,35.24,32.10,30.67
264,35.34,32.10,30.76
265,35.34,32.10,30.76
266,35.34,32.10,30.76
268,35.34,32.10,30.76
269,35.34,32.20,30.86
270,35.34,32.20,30.86
271,35.44,32.20,30.86
272,35.54,32.20,30.86
273,35.54,32.20,30.86
274,35.54,32.20,30.86
275,35.54,32.29,30.86
276,35.64,32.29,30.76
277,35.54,32.29,30.86
278,35.64,32.29,30.86
279,35.54,32.29,30.86
280,35.54,32.39,30.86
281,35.54,32.29,30.86
282,35.54,32.29,30.86
283,35.54,32.39,30.86
284,35.54,32.39,30.86
285,35.44,32.39,30.86
286,35.54,32.49,30.95
287,35.44,32.39,30.95
288,35.44,32.39,30.95
289,35.54,32.39,30.95
290,35.54,32.49,30.95
291,35.54,32.49,30.95
292,35.54,32.49,30.95
293,35.54,32.49,31.05
294,35.54,32.49,31.05
295,35.54,32.49,31.05
296,35.64,32.58,31.05
297,35.64,32.58,31.05
298,35.64,32.58,31.05
299,35.64,32.58,31.14
300,35.64,32.58,31.05
301,35.64,32.58,31.14
302,35.64,32.68,31.14
303,35.64,32.68,31.14
304,35.64,32.68,31.14
305,35.64,32.68,31.14
306,35.64,32.58,31.14
307,35.64,32.58,31.24
308,35.74,32.68,31.24
309,35.74,32.68,31.24
310,35.74,32.68,31.24
311,35.64,32.68,31.24
312,35.74,32.68,31.33
313,35.74,32.68,31.24
314,35.74,32.68,31.33
315,35.74,32.68,31.33
316,35.74,32.68,31.24
317,35.74,32.68,31.33
318,35.74,32.68,31.33
319,35.74,32.78,31.33
320,35.74,32.78,31.33
321,35.74,32.78,31.33
322,35.74,32.78,31.43
323,35.74,32.78,31.43
324,35.84,32.78,31.43
325,35.74,32.78,31.43
326,35.74,32.87,31.52
327,35.74,32.78,31.52
328,35.74,32.78,31.52
329,35.84,32.78,31.52
330,35.84,32.78,31.52
331,35.74,32.78,31.52
332,35.74,32.78,31.52
333,35.74,32.78,31.43
334,35.84,32.87,31.43
335,35.74,32.87,31.43
336,35.84,32.87,31.43
337,35.84,32.87,31.52
338,35.84,32.87,31.43
339,35.84,32.87,31.43
340,35.74,32.87,31.43
341,35.74,32.97,31.43
342,35.84,32.97,31.52
343,35.84,32.97,31.43
344,35.94,32.97,31.43
345,35.94,32.97,31.52
346,35.94,32.97,31.52
347,36.04,32.97,31.43
348,35.94,32.97,31.52
349,36.04,32.97,31.43
350,36.04,32.97,31.43
351,36.04,33.07,31.52
352,36.04,33.07,31.52
353,36.04,33.07,31.52
354,35.94,33.07,31.52
355,36.04,33.07,31.52
356,36.04,33.07,31.52
357,36.04,33.07,31.52
358,36.04,33.07,31.52
359,36.04,33.07,31.52
360,35.94,33.07,31.52
361,35.94,33.07,31.52
362,35.94,33.07,31.52
363,35.94,33.07,31.52
364,36.04,33.07,31.52
365,36.14,33.07,31.52
366,36.24,33.07,31.52
367,36.24,33.07,31.52
368,36.35,33.07,31.52
369,36.35,33.07,31.52
370,36.35,33.07,31.52
371,36.45,33.07,31.52
372,36.45,33.07,31.62
373,36.45,33.07,31.62
374,36.45,33.16,31.62
375,36.45,33.16,31.62
376,36.55,33.16,31.62
377,36.55,33.16,31.62
378,36.55,33.16,31.62
379,36.55,33.26,31.62
380,36.45,33.26,31.62
381,36.45,33.26,31.62
382,36.45,33.26,31.62
383,36.35,33.36,31.72
384,36.35,33.26,31.72
385,36.24,33.26,31.81
386,36.24,33.36,31.72
387,36.24,33.36,31.72
388,36.35,33.36,31.72
389,36.35,33.36,31.72
390,36.24,33.36,31.72
391,36.24,33.36,31.81
392,36.35,33.36,31.72
393,36.35,33.36,31.72
394,36.35,33.36,31.72
395,36.35,33.36,31.81
396,36.24,33.36,31.72
397,36.24,33.46,31.81
398,36.35,33.46,31.81
399,36.24,33.46,31.81
400,36.24,33.46,31.81
401,36.24,33.46,31.81
402,36.24,33.46,31.81
403,36.24,33.46,31.81
404,36.24,33.46,31.81
405,36.24,33.46,31.81
406,36.24,33.46,31.91
407,36.24,33.46,31.91
408,36.24,33.46,31.91
409,36.24,33.46,31.91
410,36.24,33.46,31.91
411,36.35,33.46,31.91
412,36.35,33.46,31.91
413,36.35,33.46,31.81
414,36.35,33.36,31.91
415,36.35,33.46,31.91
416,36.35,33.46,31.91
417,36.35,33.46,31.91
418,36.35,33.46,31.91
419,36.35,33.46,31.91
420,36.35,33.46,31.91
421,36.35,33.36,31.91
422,36.45,33.36,31.91
423,36.45,33.46,31.91
424,36.45,33.46,31.91
425,36.35,33.46,31.91
426,36.35,33.46,32.00
427,36.35,33.46,31.91
428,36.35,33.46,32.00
429,36.45,33.46,32.00
430,36.45,33.46,31.91
431,36.45,33.46,32.00
432,36.45,33.46,32.00
433,36.45,33.46,31.91
434,36.45,33.46,31.91
435,36.45,33.46,32.00
436,36.45,33.46,32.00
437,36.55,33.55,32.00
438,36.55,33.55,32.00
439,36.55,33.55,32.00
440,36.55,33.55,32.00
441,36.45,33.55,32.00
442,36.14,33.55,32.00
443,35.74,33.55,32.00
444,35.34,33.46,32.00
445,35.04,33.46,32.00
446,34.74,33.46,32.00
447,34.54,33.46,32.00
448,34.24,33.36,31.91
449,34.04,33.36,32.00
450,33.75,33.36,32.00
451,33.55,33.26,32.00
452,33.36,33.26,31.91
453,33.16,33.16,31.91
454,32.97,33.07,31.91
455,32.78,33.07,32.00
456,32.68,32.97,31.91
457,32.49,32.97,31.91
458,32.29,32.87,31.91
459,32.20,32.78,31.91
460,32.10,32.78,31.91
461,32.00,32.68,31.81
462,31.91,32.58,31.81
463,31.81,32.49,31.72
464,31.72,32.39,31.72
465,31.62,32.29,31.72
466,31.52,32.29,31.62
467,31.43,32.20,31.62
468,31.24,32.10,31.62
469,31.14,32.10,31.52
470,30.95,32.00,31.52
471,30.86,32.00,31.52
472,30.76,31.91,31.52
473,30.67,31.81,31.43
474,30.57,31.72,31.43
475,30.48,31.72,31.43
476,30.39,31.62,31.33
477,30.29,31.62,31.33
478,30.20,31.52,31.33
479,30.10,31.43,31.14
480,30.10,31.33,31.14
481,30.01,31.33,31.05
482,29.92,31.24,31.05
483,29.82,31.14,30.95
484,29.73,31.14,30.95
485,29.63,31.05,30.86
486,29.63,31.05,30.86
487,29.54,30.95,30.76
488,29.54,30.86,30.76
489,29.45,30.86,30.67
490,29.35,30.76,30.67
491,29.35,30.67,30.57
492,29.26,30.57,30.57
493,29.17,30.57,30.48
494,29.07,30.48,30.48
495,29.07,30.48,30.39
496,28.98,30.39,30.39
497,28.89,30.29,30.39
498,28.89,30.20,30.29
499,28.79,30.20,30.29
500,28.70,30.10,30.20
501,28.70,30.01,30.10
502,28.70,30.01,30.01
503,28.70,29.92,30.01
504,28.61,29.82,30.01
505,28.52,29.82,29.92
506,28.52,29.82,29.92
507,28.52,29.73,29.82
508,28.52,29.63,29.73
509,28.42,29.54,29.73
510,28.42,29.54,29.63
511,28.33,29.45,29.54
512,28.33,29.45,29.54
513,28.33,29.35,29.54
514,28.24,29.35,29.45
515,28.15,29.26,29.45
516,28.15,29.26,29.35
517,28.05,29.17,29.35
518,27.96,29.07,29.26
519,27.96,29.07,29.17
520,27.87,29.07,29.17
521,27.78,28.98,29.07
522,27.78,28.98,29.07
523,27.78,28.89,29.07
524,27.69,28.89,28.98
525,27.69,28.79,28.98
526,27.69,28.79,28.89
527,27.59,28.70,28.79
528,27.59,28.70,28.79
529,27.50,28.70,28.79
530,27.50,28.61,28.70
531,27.41,28.61,28.61
532,27.41,28.52,28.61
533,27.32,28.42,28.61
535,27.32,28.42,28.52
536,27.23,28.42,28.52
537,27.23,28.33,28.52
538,27.13,28.33,28.42
539,27.13,28.33,28.33
540,27.13,28.24,28.33
541,27.13,28.24,28.33
542,27.04,28.15,28.24
543,26.95,28.15,28.15
544,26.95,28.05,28.15
545,26.95,28.05,28.05
546,26.95,28.05,28.15
547,26.86,27.96,28.05
548,26.86,27.87,27.96
549,26.77,27.87,27.96
550,26.77,27.87,27.87
551,26.77,27.87,27.87
552,26.68,27.78,27.87
553,26.68,27.78,27.78
554,26.68,27.69,27.78
555,26.59,27.69,27.78
556,26.59,27.59,27.69
557,26.59,27.59,27.69
558,26.49,27.59,27.59
559,26.49,27.50,27.59
560,26.49,27.50,27.50
561,26.40,27.41,27.41
562,26.40,27.41,27.50
563,26.31,27.41,27.41
564,26.40,27.32,27.41
565,26.31,27.32,27.32
566,26.31,27.32,27.32
567,26.22,27.23,27.23
568,26.22,27.23,27.23
569,26.22,27.23,27.23
570,26.13,27.13,27.23
571,26.13,27.13,27.04
572,26.13,27.13,27.04
573,26.04,27.04,27.04
574,26.04,27.04,26.95
575,26.04,27.04,26.95
576,26.04,26.95,26.95
577,25.95,26.95,26.95
578,25.95,26.95,26.95
579,25.86,26.86,26.95
580,25.86,26.86,26.86
581,25.86,26.77,26.77
582,25.77,26.77,26.77
583,25.77,26.77,26.77
584,25.77,26.68,26.68
585,25.77,26.68,26.68
586,25.77,26.59,26.68
587,25.77,26.59,26.59
588,25.67,26.59,26.59
589,25.67,26.49,26.59
590,25.67,26.49,26.49
591,25.58,26.49,26.49
592,25.67,26.40,26.49
593,25.58,26.40,26.40
594,25.58,26.40,26.40
595,25.58,26.31,26.40
596,25.49,26.31,26.40
597,25.49,26.31,26.31
598,25.49,26.31,26.31
599,25.49,26.31,26.31
600,25.40,26.22,26.31
601,25.40,26.22,26.22
602,25.31,26.22,26.22
603,25.31,26.22,26.13
604,25.31,26.13,26.13
605,25.22,26.13,26.13
606,25.22,26.13,26.13
607,25.22,26.13,26.13
608,25.22,26.04,26.13
609,25.22,26.04,26.04
610,25.22,25.95,26.04
611,25.13,25.95,25.95
612,25.13,25.95,25.95
613,25.13,25.95,25.95
614,25.13,25.86,25.95
615,25.04,25.86,25.86
616,25.04,25.77,25.86
617,25.04,25.77,25.77
618,25.04,25.77,25.77
619,25.04,25.77,25.77
620,24.95,25.67,25.67
621,24.95,25.77,25.67
622,24.95,25.67,25.67
623,24.95,25.67,25.58
624,24.86,25.58,25.67
625,24.86,25.58,25.58
626,24.86,25.58,25.58
627,24.86,25.58,25.49
628,24.86,25.58,25.49
629,24.77,25.49,25.49
630,24.77,25.49,25.40
631,24.77,25.49,25.40
632,24.77,25.49,25.40
633,24.68,25.40,25.40
634,24.68,25.40,25.40
635,24.68,25.40,25.49
636,24.68,25.31,25.31
637,24.68,25.31,25.31
638,24.59,25.31,25.31
639,24.59,25.31,25.22
640,24.59,25.22,25.22
641,24.59,25.22,25.22
642,24.59,25.22,25.22
643,24.59,25.22,25.22
644,24.59,25.22,25.13
645,24.50,25.13,25.13
646,24.50,25.13,25.13
647,24.50,25.13,25.13
648,24.50,25.13,25.13
649,24.41,25.13,25.04
650,24.41,25.04,25.04
651,24.41,25.04,25.04
652,24.41,25.04,25.04
653,24.41,24.95,25.04
654,24.32,25.04,25.04
655,24.32,24.95,25.04
656,24.32,24.95,25.04
657,24.32,24.95,24.95
658,24.32,24.95,24.95
659,24.23,24.86,24.95
660,24.23,24.86,24.95
661,24.23,24.86,24.95
662,24.23,24.86,24.86
663,24.23,24.86,24.77
664,24.14,24.86,24.77
665,24.14,24.77,24.86
666,24.14,24.77,24.77
667,24.14,24.77,24.77
668,24.14,24.77,24.68
669,24.14,24.77,24.68
670,24.14,24.68,24.68
671,24.05,24.68,24.68
672,24.05,24.68,24.59
673,24.05,24.68,24.68
674,24.05,24.68,24.59
675,24.05,24.59,24.68
676,23.96,24.59,24.59
677,23.96,24.59,24.59
678,23.96,24.59,24.59
679,23.96,24.59,24.59
680,23.96,24.59,24.59
681,23.96,24.50,24.50
682,23.96,24.50,24.59
683,23.87,24.50,24.50
684,23.87,24.50,24.59
685,23.87,24.50,24.50
686,23.87,24.50,24.50
687,23.87,24.41,24.50
688,23.87,24.41,24.50
689,23.87,24.41,24.41
690,23.78,24.41,24.41
691,23.78,24.41,24.50
692,23.78,24.41,24.41
693,23.78,24.41,24.41
694,23.78,24.32,24.41
695,23.78,24.32,24.41
696,23.78,24.32,24.32
697,23.78,24.32,24.32
698,23.78,24.32,24.32
699,23.78,24.32,24.32
700,23.78,24.32,24.32
701,23.69,24.23,24.32
702,23.69,24.23,24.23
703,23.69,24.23,24.23
704,23.69,24.23,24.23
705,23.69,24.23,24.23
706,23.69,24.23,24.23
707,23.69,24.14,24.23
708,23.60,24.14,24.14
709,23.60,24.14,24.14
710,23.60,24.14,24.14
711,23.60,24.14,24.14
712,23.60,24.14,24.14
713,23.60,24.14,24.14
714,23.60,24.14,24.14
715,23.51,24.05,24.05
716,23.51,24.14,24.05
717,23.51,24.05,24.05
718,23.51,24.05,24.05
719,23.51,24.05,23.96
720,23.51,24.05,23.96
721,23.51,24.05,23.96
722,23.51,24.05,23.96
723,23.51,24.05,23.96
724,23.51,23.96,23.96
725,23.51,23.96,23.96
726,23.42,23.96,23.96
727,23.42,23.96,23.96
728,23.42,23.96,23.96
729,23.51,23.87,23.87
730,23.42,23.87,23.87
731,23.42,23.87,23.87
732,23.42,23.87,23.87
733,23.42,23.87,23.87
734,23.42,23.87,23.87
735,23.42,23.87,23.87
736,23.42,23.87,23.87
737,23.42,23.87,23.78
738,23.33,23.78,23.78
739,23.42,23.78,23.78
740,23.33,23.78,23.78
741,23.33,23.78,23.78
742,23.33,23.78,23.78
743,23.33,23.78,23.78
744,23.33,23.78,23.78
745,23.33,23.78,23.78
746,23.33,23.78,23.78
747,23.33,23.78,23.69
748,23.33,23.78,23.87
749,23.33,23.78,23.78
750,23.33,23.78,23.69
751,23.24,23.69,23.78
752,23.24,23.69,23.69
753,23.33,23.69,23.69
754,23.33,23.69,23.69
755,23.24,23.69,23.69
756,23.24,23.69,23.69
757,23.24,23.69,23.69
758,23.24,23.69,23.69
759,23.24,23.69,23.69
760,23.24,23.69,23.69
761,23.24,23.69,23.60
762,23.15,23.69,23.60
763,23.15,23.60,23.60
764,23.15,23.60,23.60
765,23.15,23.60,23.60
766,23.15,23.60,23.60
767,23.15,23.60,23.60
768,23.15,23.60,23.60
769,23.15,23.60,23.60
770,23.15,23.60,23.60
771,23.15,23.60,23.51
772,23.15,23.51,23.60
773,23.15,23.60,23.51
774,23.06,23.60,23.51
775,23.15,23.60,23.51
776,23.06,23.51,23.51
777,23.15,23.51,23.51
778,23.06,23.60,23.51
779,23.06,23.51,23.51
780,23.06,23.51,23.51
781,23.06,23.51,23.51
782,23.06,23.51,23.51
783,23.15,23.51,23.51
784,23.06,23.51,23.51
785,23.06,23.51,23.51
786,23.06,23.51,23.51
787,23.06,23.51,23.51
788,23.06,23.51,23.51
789,23.06,23.42,23.51
790,23.06,23.42,23.42
791,23.06,23.51,23.42
792,23.06,23.42,23.42
793,23.06,23.42,23.42
794,23.06,23.51,23.42
795,22.97,23.42,23.42
796,23.06,23.42,23.42
797,23.06,23.42,23.42
798,22.97,23.42,23.42
799,22.97,23.42,23.42
801,23.06,23.42,23.33
802,22.97,23.42,23.33
803,22.97,23.42,23.42
804,22.97,23.42,23.33
805,22.97,23.33,23.42
806,22.97,23.33,23.33
807,22.97,23.42,23.33
808,22.97,23.33,23.33
809,22.97,23.42,23.33
810,22.97,23.33,23.33
811,22.97,23.33,23.33
812,22.97,23.33,23.33
813,22.97,23.33,23.33
814,22.97,23.33,23.33
815,22.97,23.33,23.24
816,22.97,23.33,23.33
817,22.97,23.33,23.33
818,22.88,23.33,23.33
819,22.97,23.33,23.24
820,22.97,23.24,23.33
821,22.88,23.33,23.24
822,22.88,23.33,23.24
823,22.88,23.33,23.24
824,22.88,23.33,23.33
825,22.88,23.24,23.24
826,22.88,23.24,23.24
827,22.88,23.24,23.24
828,22.88,23.24,23.24
829,22.88,23.24,23.24
830,22.88,23.24,23.24
831,22.88,23.24,23.24
832,22.88,23.24,23.24
833,22.88,23.24,23.24
834,22.88,23.24,23.24
835,22.88,23.24,23.24
836,22.79,23.24,23.24
837,22.79,23.24,23.24
